open_time,expected
1735736400000000,475.0400000000
1735740000000000,496.7778571429
1735743600000000,504.1508673469
1735747200000000,508.8543768222
1735750800000000,503.0954927634
1735754400000000,498.8743861375
1735758000000000,511.4840728419
1735761600000000,494.4402104961
1735765200000000,492.2144811749
1735768800000000,479.3070182339
1735772400000000,474.3772312172
1735776000000000,511.1860004159
1735779600000000,532.9805718148
1735783200000000,525.7205309709
1735786800000000,515.7040644730
1735790400000000,551.3794884392
1735794000000000,540.9088106935
1735797600000000,524.9131813583
1735801200000000,514.1800969755
1735804800000000,518.2736614773
1735808400000000,535.7541142289
1735812000000000,516.7431060697
1735815600000000,508.8985984933
1735819200000000,492.9472700295
1735822800000000,497.1688935988
1735826400000000,569.9646869132
1735830000000000,611.9943521337
1735833600000000,683.2776126955
1735837200000000,724.9292117887
1735840800000000,741.0056966610
1735844400000000,729.2910040423
1735848000000000,715.7345037536
1735851600000000,687.1541820569
1735855200000000,677.0738833385
1735858800000000,651.5407488144
1735862400000000,625.3164096133
1735866000000000,605.6509517838
1735869600000000,597.0658837993
1735873200000000,572.7697492422
1735876800000000,553.2626242963
1735880400000000,533.0438654180
1735884000000000,524.0093036024
1735887600000000,512.6643533451
1735891200000000,506.7476138205
1735894800000000,513.0256414047
1735898400000000,493.3230955901
1735902000000000,482.9064459051
1735905600000000,466.6059854833
1735909200000000,459.5112722345
1735912800000000,486.5211813606
1735916400000000,516.1182398348
1735920000000000,553.3869369895
1735923600000000,546.8685843474
1735927200000000,557.6536854654
1735930800000000,552.4912793608
1735934400000000,545.0276165493
1735938000000000,521.9670725100
1735941600000000,503.4651387593
1735945200000000,489.9462002765
1735948800000000,483.5786145425
1735952400000000,470.1129992180
1735956000000000,469.7956421310
1735959600000000,454.2059534074
1735963200000000,445.8440995926
1735966800000000,428.8373781931
1735970400000000,410.3339940364
1735974000000000,399.2294230338
1735977600000000,399.3530356743
1735981200000000,402.7863902690
1735984800000000,392.5587909640
1735988400000000,379.6281630380
1735992000000000,368.0097228210
1735995600000000,364.4704569053
1735999200000000,356.4204242692
1736002800000000,376.4782511071
1736006400000000,372.7790903137
1736010000000000,372.0248695770
1736013600000000,361.8288074644
1736017200000000,365.8960355026
1736020800000000,375.8156043953
1736024400000000,380.0023469385
1736028000000000,368.4978935857
1736031600000000,361.8866154725
1736035200000000,352.9954286530
1736038800000000,347.2350408921
1736042400000000,331.1525379712
1736046000000000,318.8194995447
1736049600000000,319.9609638629
1736053200000000,313.9080378727
1736056800000000,305.4274637390
1736060400000000,297.6162163290
1736064000000000,311.4300580198
1736067600000000,310.9771967327
1736071200000000,301.3845398232
1736074800000000,294.6449298358
1736078400000000,301.2860062761
1736082000000000,303.9641486850
1736085600000000,331.5588523503
1736089200000000,349.2753628967
1736092800000000,352.5214084041
1736096400000000,356.2963078038
1736100000000000,355.8837143893
1736103600000000,348.6070205043
1736107200000000,370.4208047540
1736110800000000,365.8107472716
1736114400000000,368.3564081808
1736118000000000,378.7688075964
1736121600000000,393.3374641967
1736125200000000,429.2619310398
1736128800000000,447.3882216798
1736132400000000,449.4633487027
1736136000000000,450.4523952239
1736139600000000,453.4200812793
1736143200000000,448.2957897594
1736146800000000,442.6125190623
1736150400000000,455.6894819864
1736154000000000,445.1073761302
1736157600000000,438.2189921209
1736161200000000,456.7912069694
1736164800000000,464.9275493288
1736168400000000,479.2920100910
1736172000000000,629.5775807988
1736175600000000,726.5313250274
1736179200000000,728.9512303826
1736182800000000,741.7889996410
1736186400000000,722.7676425238
1736190000000000,699.1699537721
1736193600000000,686.2649570741
1736197200000000,689.3838887116
1736200800000000,674.7186109465
1736204400000000,651.0037101646
1736208000000000,659.8163022957
1736211600000000,640.3258521318
1736215200000000,620.8247198366
1736218800000000,598.2858112769
1736222400000000,574.0339676142
1736226000000000,547.5515413561
1736229600000000,526.0057169735
1736233200000000,515.1867371897
1736236800000000,505.3591131047
1736240400000000,489.4084621687
1736244000000000,479.0035720137
1736247600000000,514.8283168699
1736251200000000,501.5234370935
1736254800000000,490.3024773011
1736258400000000,536.0601574939
1736262000000000,711.3051462443
1736265600000000,714.8833500840
1736269200000000,751.6081107923
1736272800000000,765.1789600214
1736276400000000,773.1190343056
1736280000000000,767.0898175695
1736283600000000,761.8826877431
1736287200000000,765.2310671900
1736290800000000,736.9181338193
1736294400000000,724.3439814036
1736298000000000,719.7736970177
1736301600000000,697.1648615164
1736305200000000,694.6037999795
1736308800000000,686.2106714095
1736312400000000,676.6006234517
1736316000000000,726.6341503480
1736319600000000,715.0717110375
1736323200000000,707.1315888205
1736326800000000,705.6293324762
1736330400000000,695.7679515850
1736334000000000,753.7945264718
1736337600000000,737.4042031524
1736341200000000,741.2817600701
1736344800000000,758.1066343508
1736348400000000,807.8768747543
1736352000000000,821.5313837004
1736355600000000,930.4998562932
1736359200000000,960.6312951294
1736362800000000,949.5662026202
1736366400000000,928.0629024330
1736370000000000,932.9155522593
1736373600000000,925.5737270979
1736377200000000,888.8141751623
1736380800000000,849.6795912221
1736384400000000,818.6781918491
1736388000000000,875.0168924313
1736391600000000,868.4271144005
1736395200000000,855.7358919434
1736398800000000,815.0397568045
1736402400000000,797.5769170328
1736406000000000,820.0957086733
1736409600000000,808.0160151966
1736413200000000,808.6427283969
1736416800000000,796.8432477971
1736420400000000,786.6015872402
1736424000000000,769.1100452944
1736427600000000,827.4643277734
1736431200000000,846.9311615039
1736434800000000,923.3332213965
1736438400000000,917.3165627253
1736442000000000,992.4339511021
1736445600000000,981.2415260233
1736449200000000,1010.5778455931
1736452800000000,1021.7972851936
1736456400000000,999.9953362512
1736460000000000,1006.9006693761
1736463600000000,981.7527644207
1736467200000000,941.5039955335
1736470800000000,914.8844244239
1736474400000000,899.0619655365
1736478000000000,864.5039679982
1736481600000000,831.9572559983
1736485200000000,815.9045948556
1736488800000000,799.4235523659
1736492400000000,808.7504414826
1736496000000000,777.9554099482
1736499600000000,752.2814520947
1736503200000000,736.8206340879
1736506800000000,731.8098745102
1736510400000000,709.1641691881
1736514000000000,824.9488713889
1736517600000000,858.9403805754
1736521200000000,963.1574962486
1736524800000000,957.6133893737
1736528400000000,1069.0645758470
1736532000000000,1079.2156775722
1736535600000000,1074.4781291742
1736539200000000,1058.8818342332
1736542800000000,1006.0567032165
1736546400000000,960.5890815582
1736550000000000,908.9341471612
1736553600000000,871.5617080783
1736557200000000,843.7780146441
1736560800000000,806.0724421695
1736564400000000,771.5922677288
1736568000000000,751.0756771768
1736571600000000,723.6824145213
1736575200000000,688.1065277698
1736578800000000,651.9439186434
1736582400000000,632.3136387403
1736586000000000,607.5040931160
1736589600000000,580.4152293220
1736593200000000,563.0019986561
1736596800000000,531.8725701807
1736600400000000,512.7016723106
1736604000000000,499.7365528599
1736607600000000,483.2896562270
1736611200000000,477.0232522108
1736614800000000,476.0637341957
1736618400000000,455.3177531818
1736622000000000,440.1350565259
1736625600000000,442.0839810598
1736629200000000,444.4486966984
1736632800000000,444.4166469342
1736636400000000,427.7947435818
1736640000000000,413.8872618973
1736643600000000,405.2146003333
1736647200000000,389.8007003094
1736650800000000,381.9892217159
1736654400000000,365.4185630219
1736658000000000,348.4458085204
1736661600000000,342.0468221975
1736665200000000,329.5727634691
1736668800000000,326.3582803641
1736672400000000,339.5626889096
1736676000000000,330.9889254160
1736679600000000,331.1668593149
1736683200000000,337.9777979352
1736686800000000,344.3372409399
1736690400000000,343.3645808727
1736694000000000,374.1642536675
1736697600000000,371.6968069770
1736701200000000,365.6613207644
1736704800000000,367.9797978526
1736708400000000,375.7948122917
1736712000000000,362.3808971280
1736715600000000,366.8094044760
1736719200000000,380.8173041563
1736722800000000,397.6774967166
1736726400000000,474.7491040940
1736730000000000,535.0255966587
1736733600000000,539.6673397545
1736737200000000,532.2361012006
1736740800000000,544.9528082577
1736744400000000,541.5868933821
1736748000000000,577.6414009977
1736751600000000,570.5313009264
1736755200000000,583.8647794317
1736758800000000,581.5801523294
1736762400000000,648.3879985916
1736766000000000,669.4259986922
1736769600000000,696.6098559285
1736773200000000,732.3348662193
1736776800000000,897.4045186322
1736780400000000,942.5899101585
1736784000000000,949.4813451472
1736787600000000,956.6612490652
1736791200000000,946.2954455606
1736794800000000,945.4243423062
1736798400000000,1011.8168892844
1736802000000000,1015.9842543355
1736805600000000,984.4960933115
1736809200000000,946.1699437893
1736812800000000,916.7135192329
1736816400000000,892.5611250020
1736820000000000,866.7517589304
1736823600000000,825.1373475782
1736827200000000,788.9896798941
1736830800000000,775.7275599016
1736834400000000,740.2127341944
1736838000000000,710.9146817519
1736841600000000,728.6772044839
1736845200000000,812.4495470208
1736848800000000,798.3424365193
1736852400000000,767.0436910536
1736856000000000,764.2134274070
1736859600000000,817.7760397350
1736863200000000,847.6313226111
1736866800000000,843.5719424246
1736870400000000,863.3096608228
1736874000000000,870.6182564783
1736877600000000,856.1540953013
1736881200000000,839.4673742084
1736884800000000,834.4211331935
1736888400000000,800.7339093940
1736892000000000,764.3922015801
1736895600000000,729.7591871815
1736899200000000,737.0992452400
1736902800000000,739.1100134371
1736906400000000,737.6085839059
1736910000000000,725.8172564841
1736913600000000,720.5631667352
1736917200000000,704.2579405398
1736920800000000,675.1288019298
1736924400000000,662.2510303634
1736928000000000,641.4130996232
1736931600000000,638.4221639358
1736935200000000,622.4555807975
1736938800000000,608.0923250263
1736942400000000,611.4128732387
1736946000000000,726.3840965788
1736949600000000,737.7145182517
1736953200000000,744.6827669480
1736956800000000,733.6732835946
1736960400000000,733.6866204807
1736964000000000,741.1532904464
1736967600000000,737.6844839859
1736971200000000,772.2170208441
1736974800000000,745.6472336409
1736978400000000,711.9781455237
1736982000000000,723.7882779863
1736985600000000,758.3662581301
1736989200000000,731.7036682637
1736992800000000,725.1905491020
1736996400000000,721.8197955947
1737000000000000,686.0233816237
1737003600000000,655.5045686505
1737007200000000,651.5163851755
1737010800000000,619.2416433773
1737014400000000,660.8993831360
1737018000000000,661.2344271977
1737021600000000,634.2655395408
1737025200000000,634.1930010021
1737028800000000,633.9635009305
1737032400000000,637.5418222927
1737036000000000,730.2331207003
1737039600000000,818.3500406503
1737043200000000,816.6336091753
1737046800000000,842.8197799485
1737050400000000,840.5005099522
1737054000000000,854.8019020984
1737057600000000,821.2546233771
1737061200000000,811.2885788502
1737064800000000,809.0522517894
1737068400000000,777.6820909473
1737072000000000,756.7183701654
1737075600000000,830.0442008679
1737079200000000,868.4403293773
1737082800000000,829.8353058504
1737086400000000,809.0384982896
1737090000000000,785.5800341261
1737093600000000,749.7786031171
1737097200000000,731.8294171801
1737100800000000,735.2966016673
1737104400000000,721.6904158339
1737108000000000,726.3775289886
1737111600000000,700.2691340609
1737115200000000,704.8041959136
1737118800000000,694.2860390627
1737122400000000,724.4127505582
1737126000000000,741.8404112326
1737129600000000,771.6246675731
1737133200000000,805.3479056036
1737136800000000,812.6059123462
1737140400000000,838.9204900358
1737144000000000,872.4147407475
1737147600000000,851.4586878370
1737151200000000,825.6702101343
1737154800000000,799.6273379819
1737158400000000,784.0489566975
1737162000000000,769.0940312191
1737165600000000,731.3030289891
1737169200000000,784.7142412042
1737172800000000,804.3546525468
1737176400000000,814.9871773648
1737180000000000,814.9702361245
1737183600000000,820.0737906870
1737187200000000,837.7220913522
1737190800000000,806.2262276842
1737194400000000,781.8814971354
1737198000000000,793.9613901971
1737201600000000,784.6212908973
1737205200000000,820.5961986904
1737208800000000,822.0178987839
1737212400000000,851.0044774422
1737216000000000,901.8805861963
1737219600000000,905.6262586109
1737223200000000,884.9500972815
1737226800000000,850.7550903329
1737230400000000,841.5982981662
1737234000000000,809.8748482972
1737237600000000,783.8902162760
1737241200000000,760.6623436848
1737244800000000,738.3457477073
1737248400000000,733.5146228711
1737252000000000,750.5292926660
1737255600000000,741.4564860470
1737259200000000,730.7231656151
1737262800000000,745.7079394997
1737266400000000,735.6416581069
1737270000000000,728.4079682421
1737273600000000,737.9331133677
1737277200000000,831.3193195557
1737280800000000,835.8450824446
1737284400000000,857.6018622700
1737288000000000,849.1695863935
1737291600000000,822.1781873654
1737295200000000,828.9426025536
1737298800000000,823.1174166569
1737302400000000,800.2226011814
1737306000000000,787.9502725256
1737309600000000,756.5059673452
1737313200000000,790.5469696777
1737316800000000,800.9671861293
1737320400000000,935.4781014058
1737324000000000,1111.1789513054
1737327600000000,1300.5518833550
1737331200000000,1359.6346059725
1737334800000000,1360.3842769744
1737338400000000,1386.1725429048
1737342000000000,1344.2945041259
1737345600000000,1338.6298966884
1737349200000000,1292.8520469249
1737352800000000,1726.7340435731
1737356400000000,1787.4666118893
1737360000000000,1751.8325681829
1737363600000000,1744.2180990270
1737367200000000,1688.3982348108
1737370800000000,1622.7619323243
1737374400000000,1737.3546514440
1737378000000000,1718.5357477694
1737381600000000,1656.6974800716
1737385200000000,1789.0762314951
1737388800000000,1899.9993578169
1737392400000000,2224.6458322585
1737396000000000,2189.3797013829
1737399600000000,2120.8997227127
1737403200000000,2039.3354568046
1737406800000000,2002.0264956043
1737410400000000,1999.7267459183
1737414000000000,2001.7112640670
1737417600000000,1972.0090309193
1737421200000000,1982.1669572822
1737424800000000,1961.9021746192
1737428400000000,1890.3448764321
1737432000000000,1830.0030995441
1737435600000000,1784.1385924338
1737439200000000,1733.4479786886
1737442800000000,1658.2324087822
1737446400000000,1593.7815224406
1737450000000000,1538.6656994092
1737453600000000,1484.6710065942
1737457200000000,1442.8487918375
1737460800000000,1418.1910209920
1737464400000000,1377.6638052068
1737468000000000,1444.9021048349
1737471600000000,1435.0198116324
1737475200000000,1523.8733965158
1737478800000000,1523.0081539075
1737482400000000,1510.5654286284
1737486000000000,1465.9650408693
1737489600000000,1452.3782522357
1737493200000000,1423.0919485046
1737496800000000,1378.6032378971
1737500400000000,1341.8458637616
1737504000000000,1282.7797306358
1737507600000000,1258.6861784475
1737511200000000,1214.9778799870
1737514800000000,1151.6430314165
1737518400000000,1107.5799577439
1737522000000000,1055.8999607622
1737525600000000,1035.1421064220
1737529200000000,1006.5383845347
1737532800000000,980.5913570680
1737536400000000,935.8062601345
1737540000000000,905.6779558392
1737543600000000,891.4302447078
1737547200000000,865.1766558001
1737550800000000,917.3511803858
1737554400000000,943.7132389297
1737558000000000,959.6587218633
1737561600000000,954.9345274445
1737565200000000,953.7984897699
1737568800000000,951.9214547863
1737572400000000,948.2827794444
1737576000000000,934.7990094841
1737579600000000,922.1319373781
1737583200000000,909.4646561368
1737586800000000,879.5021806985
1737590400000000,871.4784535057
1737594000000000,885.3507068268
1737597600000000,885.2106563391
1737601200000000,879.8677523149
1737604800000000,882.5664842924
1737608400000000,865.1945925572
1737612000000000,857.6149788031
1737615600000000,847.6917660315
1737619200000000,834.6380684578
1737622800000000,833.4303492823
1737626400000000,831.7881814764
1737630000000000,808.9054542281
1737633600000000,803.5364932118
1737637200000000,848.1631722681
1737640800000000,1077.6550885346
1737644400000000,1225.5732964965
1737648000000000,1268.1752038896
1737651600000000,1321.8355464689
1737655200000000,1301.8801502925
1737658800000000,1359.9422824145
1737662400000000,1538.6485479563
1737666000000000,1515.5215088166
1737669600000000,1530.0506867583
1737673200000000,1475.6484948470
1737676800000000,1422.6307452150
1737680400000000,1382.4521205568
1737684000000000,1325.7533976599
1737687600000000,1341.6281549699
1737691200000000,1325.7711439006
1737694800000000,1282.4246336220
1737698400000000,1242.7514455061
1737702000000000,1191.2563422557
1737705600000000,1158.1373178089
1737709200000000,1125.7846522511
1737712800000000,1072.2671770903
1737716400000000,1018.0723787267
1737720000000000,974.1129231034
1737723600000000,962.5034285960
1737727200000000,1011.7881836963
1737730800000000,991.7325991465
1737734400000000,962.7509849218
1737738000000000,971.6966288559
1737741600000000,978.2218696520
1737745200000000,973.9924503911
1737748800000000,979.0044182203
1737752400000000,947.1012454903
1737756000000000,934.5168708124
1737759600000000,901.2163800401
1737763200000000,873.1737814658
1737766800000000,841.8656542182
1737770400000000,807.2038217741
1737774000000000,808.1049773616
1737777600000000,791.9831932644
1737781200000000,768.5722508884
1737784800000000,732.4735186820
1737788400000000,697.0118387762
1737792000000000,673.0702788636
1737795600000000,637.4274018019
1737799200000000,631.5361588161
1737802800000000,608.4792903292
1737806400000000,589.0164838771
1737810000000000,563.9931636002
1737813600000000,541.4815090573
1737817200000000,539.7399726961
1737820800000000,529.6028317892
1737824400000000,526.3912009471
1737828000000000,520.4539723080
1737831600000000,503.1651171432
1737835200000000,483.9604659187
1737838800000000,467.7375754959
1737842400000000,451.8613201033
1737846000000000,450.9355115245
1737849600000000,442.0401178442
1737853200000000,429.6301094268
1737856800000000,413.0943873249
1737860400000000,424.8019310874
1737864000000000,431.6860788668
1737867600000000,414.1656446621
1737871200000000,395.9809557576
1737874800000000,378.4108874892
1737878400000000,376.9565383829
1737882000000000,391.9167856412
1737885600000000,379.8441580954
1737889200000000,365.9724325172
1737892800000000,353.1472587659
1737896400000000,348.4710259970
1737900000000000,337.8330955686
1737903600000000,328.3821601708
1737907200000000,315.2577201586
1737910800000000,302.5585972902
1737914400000000,306.1951260552
1737918000000000,298.6097599084
1737921600000000,297.3862056292
1737925200000000,308.5386195128
1737928800000000,317.2837181190
1737932400000000,423.8905953963
1737936000000000,512.1841242965
1737939600000000,541.0452582753
1737943200000000,563.3098826842
1737946800000000,604.3348910639
1737950400000000,644.9523988451
1737954000000000,671.6436560704
1737957600000000,750.1683949226
1737961200000000,813.5956524281
1737964800000000,803.1766772547
1737968400000000,798.1876288793
1737972000000000,826.2649411022
1737975600000000,841.3903024521
1737979200000000,938.1474237055
1737982800000000,990.1840362980
1737986400000000,1077.4851765624
1737990000000000,1090.9855210936
1737993600000000,1133.3658410155
1737997200000000,1123.8425666573
1738000800000000,1107.1316690389
1738004400000000,1083.5486926790
1738008000000000,1159.2909289162
1738011600000000,1180.1272911365
1738015200000000,1144.6410560553
1738018800000000,1101.8831234799
1738022400000000,1102.8200432313
1738026000000000,1068.1428972862
1738029600000000,1070.5784046229
1738033200000000,1055.1070900070
1738036800000000,1034.8308692922
1738040400000000,998.5365214856
1738044000000000,970.1267699510
1738047600000000,959.1362863830
1738051200000000,920.7115516414
1738054800000000,895.7564408099
1738058400000000,873.2759807520
1738062000000000,837.9205535554
1738065600000000,814.6383711586
1738069200000000,789.0470589330
1738072800000000,809.5486975807
1738076400000000,844.2952191820
1738080000000000,855.5412749547
1738083600000000,857.1404696008
1738087200000000,863.6304360579
1738090800000000,861.9318334824
1738094400000000,896.1481310908
1738098000000000,923.1761217271
1738101600000000,937.8806844609
1738105200000000,920.8892069994
1738108800000000,890.2299779280
1738112400000000,864.6821223617
1738116000000000,847.4676850502
1738119600000000,815.4028504037
1738123200000000,773.9090753749
1738126800000000,747.5112842767
1738130400000000,738.1519068284
1738134000000000,711.5474849121
1738137600000000,683.5798074183
1738141200000000,668.0612497456
1738144800000000,659.3511604781
1738148400000000,639.6582204439
1738152000000000,638.3904904122
1738155600000000,637.8783125256
1738159200000000,649.2891473452
1738162800000000,655.3134939634
1738166400000000,642.3896729660
1738170000000000,652.3911248970
1738173600000000,676.6489016901
1738177200000000,813.9589801408
1738180800000000,892.5819101307
1738184400000000,877.2853451214
1738188000000000,857.8485347556
1738191600000000,859.7622108445
1738195200000000,858.6949100699
1738198800000000,842.3595593506
1738202400000000,830.3260193970
1738206000000000,828.6484465829
1738209600000000,823.2764146841
1738213200000000,801.8302422067
1738216800000000,774.3223677634
1738220400000000,758.1807700660
1738224000000000,735.7092864898
1738227600000000,719.7757660263
1738231200000000,689.3939255958
1738234800000000,662.5793594818
1738238400000000,649.2579766617
1738242000000000,640.8102640430
1738245600000000,706.6152451828
1738249200000000,734.9705848126
1738252800000000,722.3091144688
1738256400000000,727.7248920068
1738260000000000,734.3731140063
1738263600000000,720.8671772916
1738267200000000,741.2195217707
1738270800000000,717.7052702157
1738274400000000,694.2391794860
1738278000000000,684.6635238084
1738281600000000,680.7389863935
1738285200000000,666.9133445083
1738288800000000,661.9181056148
1738292400000000,646.6146694995
1738296000000000,641.5071931067
1738299600000000,629.7216793133
1738303200000000,616.6251307910
1738306800000000,630.6126214487
1738310400000000,607.5938627738
1738314000000000,592.2793011471
1738317600000000,575.0729224938
1738321200000000,574.3212851728
1738324800000000,559.3404790890
1738328400000000,554.0261591541
1738332000000000,568.3100049288
1738335600000000,639.8028617196
1738339200000000,656.8290858825
1738342800000000,648.4748654623
1738346400000000,760.3695179293
1738350000000000,769.9616952200
1738353600000000,766.2637169900
1738357200000000,754.8241657765
1738360800000000,741.2281539353
1738364400000000,722.8768572256
